,Time [s],Light,USB,TMP36 [C],TC [C],Batt [V]
0,4.93,48.69,3.9836,22.76,24.0,4.1524
1,5.11,48.74,3.9821,22.84,24.1,4.1476
2,5.15,48.69,3.9757,23.0,24.1,4.1492
3,5.19,48.74,3.9805,23.32,24.1,4.1461
4,5.24,48.69,3.9805,23.48,24.1,4.1429
5,5.28,48.79,3.9821,23.24,24.1,4.1429
6,5.32,48.67,3.9852,23.4,24.1,4.1476
7,5.36,48.64,3.9757,23.24,24.1,4.1476
8,5.4,48.72,3.9805,23.48,24.1,4.1429
9,5.45,48.69,3.9805,23.32,24.1,4.1492
10,5.49,48.72,4.0043,23.16,24.1,4.1508
11,5.54,48.72,4.0028,23.24,24.1,4.1461
12,5.58,48.72,4.0091,23.24,24.1,4.1524
13,5.62,48.67,4.0043,23.32,24.1,4.1492
14,5.66,48.64,3.998,23.48,24.1,4.1492
15,5.7,48.74,4.0012,23.24,24.1,4.1476
16,5.75,48.64,4.0059,23.0,24.1,4.1461
17,5.79,48.74,3.9948,23.24,24.1,4.1461
18,5.95,48.72,4.0043,23.32,24.1,4.1413
19,5.99,48.82,3.9741,23.32,24.1,4.1492
20,6.03,48.72,4.0043,23.24,24.1,4.1461
21,6.07,48.74,4.0043,23.16,24.1,4.1492
22,6.12,48.77,4.0043,23.24,24.1,4.1492
23,6.16,48.77,3.998,23.16,24.1,4.1413
24,6.2,48.67,4.0012,23.08,24.1,4.1492
25,6.24,48.79,4.0012,23.32,24.1,4.1476
26,6.28,48.77,4.0075,23.48,24.1,4.1508
27,6.33,48.77,4.0043,22.92,24.1,4.1429
28,6.49,48.74,3.9805,23.4,24.1,4.1492
29,6.53,48.64,4.0028,23.32,24.1,4.1476
30,6.57,48.74,4.0012,23.08,24.1,4.1461
31,6.61,48.62,3.998,23.32,24.1,4.1524
32,6.66,48.64,4.0028,23.32,24.1,4.1492
33,6.7,48.6,3.9996,23.08,24.1,4.1476
34,6.74,48.57,4.0012,23.24,24.1,4.1476
35,6.78,48.64,4.0028,23.24,24.1,4.1476
36,6.82,48.55,4.0075,23.0,24.2,4.1476
37,6.99,48.64,4.0043,23.24,24.1,4.1445
38,7.03,48.6,3.9741,23.24,24.1,4.1476
39,7.08,48.62,4.0059,23.56,24.1,4.1445
40,7.12,48.6,4.0043,23.24,24.1,4.1508
41,7.16,48.6,3.9996,23.08,24.1,4.1461
42,7.2,48.62,4.0075,23.16,24.1,4.1492
43,7.24,48.64,4.0043,23.32,24.1,4.1492
44,7.29,48.69,4.0059,23.32,24.2,4.1508
45,7.33,48.62,4.0043,23.48,24.2,4.1508
46,7.37,48.72,4.0043,23.16,24.2,4.1445
47,7.54,48.72,3.9773,23.24,24.1,4.1492
48,7.58,48.69,3.9996,23.24,24.1,4.1492
49,7.62,48.69,4.0012,23.32,24.1,4.1461
50,7.66,48.74,3.9996,23.24,24.1,4.1476
51,7.7,48.67,4.0043,23.4,24.2,4.1461
52,7.75,48.64,3.9996,23.32,24.2,4.1461
53,7.79,48.72,3.9996,23.4,24.2,4.1445
54,7.83,48.67,4.0043,23.16,24.2,4.1508
55,7.87,48.67,4.0012,23.4,24.2,4.1445
56,7.92,48.64,3.9789,23.16,24.2,4.1476
57,7.96,48.77,4.0075,23.08,24.2,4.1508
58,8.0,48.69,4.0043,23.24,24.2,4.1461
59,8.05,48.72,4.0059,23.24,24.2,4.1476
60,8.09,48.67,4.0028,23.16,24.2,4.154
61,8.13,48.74,4.0028,23.24,24.2,4.1492
62,8.17,48.74,4.0091,23.24,24.2,4.1476
63,8.21,48.69,3.9964,23.24,24.2,4.1492
64,8.26,48.72,4.0043,23.16,24.2,4.1508
65,8.3,48.74,4.0043,23.16,24.2,4.1476
66,8.35,48.82,3.9805,23.4,24.2,4.1508
67,8.39,48.69,3.998,23.16,24.2,4.1476
68,8.43,48.77,3.9996,23.08,24.2,4.1476
69,8.47,48.74,4.0091,23.48,24.2,4.1492
70,8.51,48.77,4.0043,23.24,24.2,4.1492
71,8.56,48.77,4.0028,23.56,24.2,4.1524
72,8.6,48.69,3.998,23.32,24.2,4.1445
73,8.64,48.79,4.0028,23.32,24.2,4.154
74,8.68,48.62,4.0043,23.08,24.2,4.1476
75,8.73,48.69,3.9773,23.08,24.2,4.1492
76,8.77,48.72,3.998,23.24,24.2,4.1476
77,8.81,48.74,3.998,23.32,24.2,4.1461
78,8.86,48.72,4.0028,23.16,24.2,4.1492
79,8.9,48.69,4.0043,23.24,24.2,4.1492
80,8.94,48.69,3.998,23.32,24.2,4.1524
81,9.0,48.69,3.9821,23.24,24.2,4.1445
82,9.04,48.72,3.9805,23.16,24.2,4.1461
83,9.09,48.72,3.9741,23.24,24.2,4.1429
84,9.13,48.79,3.9805,23.16,24.2,4.1445
85,9.18,48.72,3.9836,23.32,24.2,4.1476
86,9.22,48.72,4.0043,23.16,24.2,4.1492
87,9.26,48.72,4.0012,23.24,24.2,4.1445
88,9.3,48.72,4.0028,23.16,24.2,4.1524
89,9.34,48.72,4.0059,23.32,24.2,4.1476
90,9.39,48.79,4.0043,23.16,24.2,4.1476
91,9.43,48.72,4.0059,23.0,24.2,4.1492
92,9.47,48.74,4.0028,23.4,24.2,4.1492
93,9.51,48.6,4.0075,23.16,24.2,4.1492
94,9.57,48.57,3.9821,22.76,24.2,4.1492
95,9.61,48.42,4.0012,23.48,24.2,4.1508
96,9.65,48.4,4.0028,23.32,24.2,4.1524
97,9.69,48.25,4.0028,23.32,24.2,4.1524
98,9.74,48.08,3.9964,23.32,24.2,4.1492
99,9.78,47.84,3.998,23.32,24.2,4.1476
100,9.82,47.52,3.998,23.48,24.2,4.1476
101,9.86,47.23,4.0012,23.48,24.3,4.1508
102,9.9,46.81,4.0043,23.16,24.3,4.1476
103,9.95,46.52,4.0012,23.32,24.2,4.1461
104,9.99,45.86,3.9789,23.4,24.3,4.1429
105,10.04,45.42,4.0043,23.56,24.3,4.1492
106,10.08,45.23,4.0059,23.08,24.3,4.1508
107,10.12,45.15,4.0059,23.4,24.3,4.1476
108,10.16,45.15,4.0059,23.24,24.3,4.1476
109,10.2,45.23,4.0107,23.16,24.3,4.1476
110,10.25,45.45,3.9996,23.24,24.3,4.1461
111,10.29,45.64,3.9964,23.4,24.3,4.1461
112,10.33,45.84,4.0043,23.32,24.3,4.1445
113,10.38,46.18,3.9836,23.32,24.3,4.1476
114,10.42,46.03,3.9996,23.4,24.3,4.1492
115,10.46,46.15,4.0012,23.4,24.3,4.1492
116,10.5,46.18,4.0043,23.24,24.3,4.1524
117,10.55,46.11,4.0075,23.16,24.3,4.1461
118,10.59,46.15,3.998,23.16,24.3,4.1476
119,10.63,46.11,3.9996,23.16,24.3,4.1492
120,10.67,46.15,4.0012,23.32,24.3,4.1476
121,10.71,46.01,4.0043,23.48,24.3,4.1492
122,10.76,45.91,3.9789,23.4,24.3,4.1508
123,10.8,45.89,4.0012,23.32,24.3,4.1461
124,10.85,46.01,4.0028,23.56,24.3,4.1461
125,10.89,46.06,3.998,23.56,24.3,4.1508
126,10.93,46.13,4.0028,23.32,24.3,4.1476
127,10.97,46.25,4.0043,23.4,24.3,4.1461
128,11.01,46.28,4.0043,23.48,24.3,4.1445
129,11.06,46.42,3.9996,23.32,24.3,4.1461
130,11.1,46.62,4.0028,23.4,24.3,4.1476
131,11.15,46.69,3.9821,23.16,24.3,4.1492
132,11.19,46.79,4.0091,23.56,24.3,4.1492
133,11.23,46.79,4.0091,23.88,24.3,4.1492
134,11.27,46.76,3.998,23.64,24.3,4.1476
135,11.31,46.62,4.0028,23.64,24.3,4.1508
136,11.36,46.64,4.0059,23.72,24.3,4.1445
137,11.4,46.72,4.0059,23.56,24.3,4.1508
138,11.44,46.74,4.0059,23.64,24.3,4.1492
139,11.48,46.72,4.0028,23.96,24.3,4.1461
140,11.53,46.79,4.0028,23.56,24.3,4.1476
141,11.57,46.81,3.9805,23.72,24.3,4.1429
142,11.61,46.79,4.0028,23.96,24.3,4.1461
143,11.66,46.79,4.0059,23.96,24.3,4.1461
144,11.7,46.89,4.0043,23.88,24.4,4.1492
145,11.74,46.89,4.0043,23.64,24.4,4.1461
146,11.78,46.91,3.998,23.88,24.4,4.1476
147,11.82,46.89,3.9996,23.88,24.4,4.1492
148,11.87,46.94,3.9996,23.96,24.4,4.1461
149,11.91,46.96,3.9964,23.8,24.4,4.1445
150,11.95,46.91,3.9805,23.72,24.4,4.1445
151,12.0,46.91,3.9996,23.88,24.4,4.1461
152,12.04,46.94,4.0043,23.8,24.4,4.1429
153,12.08,46.86,4.0075,23.8,24.4,4.1476
154,12.12,46.94,3.998,23.8,24.4,4.1445
155,12.16,46.86,4.0043,24.12,24.4,4.1476
156,12.21,46.84,4.0059,23.88,24.4,4.1476
157,12.25,46.94,3.9964,24.04,24.4,4.1524
158,12.29,46.94,4.0059,23.88,24.4,4.1476
159,12.34,46.94,3.9773,24.28,24.4,4.1445
160,12.38,46.94,4.0043,24.36,24.4,4.1445
161,12.42,46.89,4.0075,24.36,24.4,4.1476
162,12.46,46.91,4.0059,23.96,24.5,4.1476
163,12.51,46.94,4.0012,24.04,24.5,4.1492
164,12.55,46.91,3.9996,24.28,24.5,4.1508
165,12.59,46.98,4.0043,24.36,24.5,4.1476
166,12.63,46.98,4.0059,24.04,24.5,4.1461
167,12.67,46.96,4.0012,24.04,24.5,4.1445
168,12.72,46.94,3.9741,24.12,24.5,4.1445
169,12.76,46.94,3.9996,24.43,24.5,4.1492
170,12.81,46.98,4.0043,24.28,24.5,4.1492
171,12.85,47.01,4.0059,24.04,24.5,4.1492
172,12.89,46.98,4.0075,24.2,24.5,4.1492
173,12.93,47.06,4.0043,24.43,24.5,4.1461
174,12.97,46.96,4.0059,24.43,24.5,4.1492
175,13.04,47.01,3.9836,24.12,24.5,4.1461
176,13.08,46.96,3.9821,24.43,24.5,4.1461
177,13.13,46.98,3.9852,24.28,24.5,4.1461
178,13.17,46.98,4.0012,24.59,24.5,4.1492
179,13.21,47.01,3.9996,24.59,24.5,4.1492
180,13.25,46.94,4.0043,24.59,24.5,4.1461
181,13.3,46.94,3.998,24.59,24.5,4.1492
182,13.34,47.01,4.0091,24.51,24.5,4.1476
183,13.38,47.01,4.0059,24.75,24.5,4.1476
184,13.42,46.96,4.0028,24.43,24.5,4.1476
185,13.46,46.91,4.0028,24.36,24.5,4.1492
186,13.51,47.06,3.9821,24.59,24.5,4.1476
187,13.55,47.03,3.998,24.43,24.5,4.1492
188,13.6,46.98,4.0059,24.43,24.5,4.1492
189,13.64,47.01,4.0012,24.67,24.5,4.1445
190,13.68,46.98,4.0043,24.91,24.5,4.1461
191,13.72,47.06,3.9964,24.43,24.6,4.1508
192,13.76,47.01,4.0012,24.59,24.6,4.1492
193,13.81,46.98,3.998,24.83,24.6,4.1476
194,13.85,47.06,4.0043,24.67,24.6,4.1476
195,13.9,47.03,3.9789,24.28,24.6,4.1492
196,13.94,46.98,3.998,24.91,24.6,4.1461
197,13.98,47.01,4.0043,24.43,24.6,4.1445
198,14.02,46.98,3.9964,24.59,24.6,4.1508
199,14.06,47.01,4.0059,24.91,24.6,4.1461
200,14.11,47.01,4.0043,24.67,24.6,4.1429
201,14.15,47.03,4.0043,24.67,24.6,4.1445
202,14.19,46.98,4.0075,24.67,24.6,4.1461
203,14.23,47.03,4.0012,24.83,24.6,4.1492
204,14.28,47.01,4.0059,24.83,24.6,4.1461
205,14.32,47.03,3.9821,24.91,24.6,4.1476
206,14.36,47.01,4.0043,24.75,24.6,4.1476
207,14.41,47.03,4.0043,24.83,24.6,4.1461
208,14.45,46.98,4.0059,24.83,24.6,4.1476
209,14.49,46.98,4.0059,24.83,24.6,4.1476
210,14.53,47.01,4.0012,24.83,24.6,4.1445
211,14.57,47.08,4.0028,24.83,24.6,4.1461
212,14.62,46.94,4.0028,24.36,24.6,4.1461
213,14.66,47.01,3.998,24.91,24.6,4.1445
214,14.71,47.03,3.9836,24.83,24.6,4.1445
215,14.75,47.03,3.9996,25.07,24.6,4.1445
216,14.79,46.98,4.0043,24.83,24.6,4.1476
217,14.83,46.98,3.9996,24.83,24.6,4.1508
218,14.87,46.98,3.9964,24.75,24.6,4.1492
219,14.92,47.01,3.9996,24.91,24.6,4.1492
220,14.96,46.98,3.998,24.91,24.6,4.1461
221,15.0,46.98,4.0012,24.83,24.6,4.1413
222,15.04,46.98,4.0059,25.07,24.6,4.1461
223,15.09,46.96,3.9821,24.83,24.6,4.1508
224,15.13,46.94,4.0043,24.83,24.6,4.1461
225,15.17,46.98,3.9996,24.91,24.6,4.1445
226,15.22,46.98,4.0059,24.91,24.6,4.1524
227,15.26,46.98,4.0075,25.23,24.6,4.1492
228,15.3,46.94,3.9996,25.07,24.6,4.1476
229,15.34,46.96,4.0012,24.99,24.6,4.1476
230,15.38,46.94,4.0028,25.07,24.6,4.1476
231,15.43,46.98,3.998,25.23,24.7,4.1524
232,15.47,46.98,3.9836,25.23,24.6,4.1476
233,15.52,47.01,4.0091,24.75,24.6,4.1476
234,15.56,46.91,4.0012,25.07,24.7,4.1476
235,15.6,46.96,3.9996,25.15,24.7,4.1476
236,15.64,46.98,4.0028,25.31,24.6,4.1508
237,15.68,47.03,4.0059,25.15,24.7,4.1461
238,15.73,46.98,3.9996,24.91,24.7,4.1492
239,15.77,47.03,3.998,25.07,24.7,4.1429
240,15.81,47.01,4.0059,25.15,24.7,4.1476
241,15.86,46.96,3.9789,25.39,24.7,4.1508
242,15.9,46.98,4.0028,25.31,24.7,4.1476
243,15.94,47.01,4.0012,25.31,24.7,4.1476
244,15.98,47.03,3.9996,25.47,24.7,4.1492
245,16.03,46.98,4.0012,25.07,24.7,4.1461
246,16.07,47.01,4.0091,25.23,24.7,4.1461
247,16.11,47.03,4.0043,25.39,24.7,4.1476
248,16.15,47.03,4.0028,25.23,24.7,4.1461
249,16.19,47.01,4.0075,25.39,24.7,4.1445
250,16.24,47.08,3.9789,25.31,24.7,4.1476
251,16.28,47.01,4.0059,25.23,24.7,4.1476
252,16.33,46.98,4.0012,24.99,24.7,4.1461
253,16.37,46.96,4.0043,25.15,24.7,4.1429
254,16.41,46.96,4.0107,25.47,24.7,4.1461
255,16.45,46.94,4.0043,25.47,24.7,4.1492
256,16.49,46.96,4.0043,25.47,24.7,4.1461
257,16.54,46.94,4.0059,25.39,24.7,4.1461
258,16.58,46.98,3.9996,25.39,24.7,4.1476
259,16.63,46.96,3.9821,25.15,24.7,4.1445
260,16.67,47.01,3.998,25.23,24.7,4.1413
261,16.71,46.98,4.0059,25.47,24.7,4.1429
262,16.75,46.94,3.9932,25.39,24.7,4.1445
263,16.79,47.03,4.0059,25.07,24.7,4.1397
264,16.84,47.08,4.0043,25.47,24.7,4.1492
265,16.88,47.03,3.9996,25.55,24.7,4.1476
266,16.92,47.06,4.0043,25.39,24.7,4.1492
267,16.96,47.03,3.9996,25.15,24.7,4.1492
268,17.01,46.96,4.0028,25.47,24.7,4.1445
269,17.07,47.01,3.9805,25.23,24.7,4.1461
270,17.12,46.98,3.9836,25.23,24.8,4.1413
271,17.16,46.96,3.9805,25.23,24.8,4.1445
272,17.2,47.01,3.9836,25.39,24.8,4.1492
273,17.24,46.96,3.9773,25.31,24.8,4.1445
274,17.28,46.98,3.9868,25.39,24.8,4.1461
275,17.33,46.98,3.9821,25.55,24.8,4.1445
276,17.37,46.94,3.9805,25.63,24.8,4.1413
277,17.42,47.03,3.9805,25.31,24.8,4.1445
278,17.46,46.94,3.9773,25.23,24.8,4.1445
279,17.5,46.96,4.0028,25.63,24.8,4.1476
280,17.54,46.94,4.0059,25.39,24.8,4.1461
281,17.58,46.96,4.0075,25.55,24.8,4.1461
282,17.63,46.91,4.0028,25.31,24.8,4.1461
283,17.67,46.94,3.9996,25.31,24.8,4.1429
284,17.71,47.01,4.0012,25.39,24.8,4.1476
285,17.75,47.01,4.0012,25.55,24.8,4.1476
286,17.79,46.91,4.0012,25.55,24.8,4.1461
287,17.84,46.91,3.9836,25.47,24.8,4.1508
288,17.89,46.94,3.998,25.63,24.8,4.1476
289,17.93,47.01,4.0012,25.71,24.8,4.1476
290,17.97,46.96,3.998,25.63,24.8,4.1508
291,18.01,46.96,4.0012,25.47,24.8,4.1461
292,18.05,47.01,3.9996,25.55,24.8,4.1445
293,18.1,46.96,4.0028,25.55,24.8,4.1476
294,18.14,46.98,4.0012,25.63,24.8,4.1524
295,18.18,47.03,4.0028,25.47,24.8,4.1429
296,18.23,46.96,3.9821,25.79,24.8,4.1461
297,18.27,46.98,4.0091,25.71,24.9,4.1461
298,18.31,46.94,4.0012,25.71,24.9,4.1476
299,18.35,46.86,4.0075,25.71,24.9,4.1461
300,18.39,46.96,4.0107,25.87,24.9,4.1429
301,18.44,46.98,4.0059,25.71,24.9,4.1492
302,18.48,46.98,4.0075,25.55,24.9,4.1461
303,18.52,46.81,3.9996,25.79,24.9,4.1476
304,18.56,46.94,3.998,25.63,24.9,4.1445
305,18.61,46.91,3.9789,25.63,24.9,4.1429
306,18.65,46.89,4.0012,25.71,24.9,4.1492
307,18.69,46.91,4.0075,25.63,24.9,4.1461
308,18.74,46.91,4.0043,25.87,24.9,4.1508
309,18.78,46.86,3.9996,25.71,24.9,4.1445
310,18.82,46.91,4.0012,25.63,24.9,4.1461
311,18.86,46.94,4.0043,25.63,24.9,4.1476
312,18.9,46.91,3.9996,25.87,24.9,4.1461
313,18.95,46.89,3.998,25.87,24.9,4.1476
314,18.99,46.96,3.9821,25.71,24.9,4.1461
315,19.04,46.91,3.9964,25.71,24.9,4.1461
316,19.08,46.98,4.0028,25.71,24.9,4.1492
317,19.12,46.91,3.998,25.55,24.9,4.1476
318,19.16,46.91,3.998,25.79,24.9,4.1461
319,19.2,46.89,3.9996,25.87,24.9,4.1461
320,19.25,46.94,4.0091,26.03,24.9,4.1461
321,19.29,46.84,4.0012,25.95,24.9,4.1445
322,19.33,46.96,4.0012,25.55,24.9,4.1461
323,19.38,46.96,3.9805,25.55,24.9,4.1461
324,19.42,46.94,4.0012,25.95,24.9,4.1492
325,19.46,46.96,4.0043,25.87,24.9,4.1461
326,19.5,46.94,4.0012,25.87,24.9,4.1445
327,19.55,46.98,3.9964,25.79,24.9,4.1492
328,19.59,46.96,3.998,25.87,24.9,4.1476
329,19.63,46.91,3.998,26.03,24.9,4.1492
330,19.67,46.89,3.998,25.79,24.9,4.1461
331,19.71,46.91,4.0059,25.87,24.9,4.1508
332,19.76,46.91,4.0028,25.79,24.9,4.1476
333,19.8,46.94,3.9821,26.19,24.9,4.1461
334,19.85,46.91,4.0043,25.87,25.0,4.1445
335,19.89,46.91,3.9996,26.03,25.0,4.1413
336,19.93,47.01,4.0043,26.11,25.0,4.1461
337,19.97,46.94,4.0012,25.63,25.0,4.1492
338,20.01,46.91,4.0012,25.55,25.0,4.1476
339,20.06,46.96,4.0043,25.71,25.0,4.1461
340,20.1,46.89,4.0059,25.87,25.0,4.1492
341,20.15,46.91,4.0107,25.79,25.0,4.1445
342,20.19,46.86,3.9836,25.63,25.0,4.1461
343,20.23,46.84,4.0059,25.95,25.0,4.1508
344,20.27,46.94,4.0043,25.87,25.0,4.1492
345,20.31,46.89,4.0043,25.79,25.0,4.1429
346,20.36,46.96,4.0075,25.71,25.0,4.1492
347,20.4,46.91,4.0028,25.95,25.0,4.1445
348,20.44,46.86,4.0043,25.79,25.0,4.1508
349,20.48,46.91,4.0091,25.95,25.0,4.1461
350,20.52,46.96,4.0059,25.87,25.0,4.1476
351,20.57,46.94,3.9821,26.03,25.0,4.1476
352,20.61,46.91,3.998,25.95,25.0,4.1461
353,20.66,46.84,4.0075,25.95,25.0,4.1492
354,20.7,46.94,4.0043,26.03,25.0,4.1445
355,20.74,46.89,4.0059,26.03,25.0,4.1524
356,20.78,46.91,4.0043,25.79,25.0,4.1476
357,20.82,46.89,4.0012,25.95,25.0,4.1461
358,20.87,46.86,4.0107,26.27,25.1,4.1476
359,20.91,46.86,4.0059,26.11,25.0,4.1476
360,20.96,46.86,3.9836,26.19,25.1,4.1461
361,21.0,46.91,3.9996,26.11,25.1,4.1461
362,21.04,46.94,3.9996,26.11,25.1,4.1476
363,21.1,46.89,3.9789,25.63,25.1,4.1461
364,21.15,46.89,3.9805,26.11,25.1,4.1461
365,21.19,46.91,3.9741,26.03,25.1,4.1461
366,21.23,46.91,3.9805,26.11,25.1,4.1461
367,21.27,46.91,3.9805,26.19,25.1,4.1461
368,21.31,46.96,3.9821,25.95,25.1,4.1429
369,21.36,46.89,3.9852,26.11,25.1,4.1476
370,21.4,46.86,4.0075,26.19,25.1,4.1508
371,21.45,46.84,4.0075,26.19,25.1,4.1461
372,21.49,46.89,4.0043,26.27,25.1,4.1429
373,21.53,46.89,4.0043,26.19,25.1,4.1461
374,21.57,46.84,4.0059,26.19,25.1,4.1492
375,21.61,46.89,4.0075,26.11,25.1,4.1445
376,21.66,46.84,4.0059,26.19,25.1,4.1492
377,21.7,46.91,4.0012,25.95,25.1,4.1445
378,21.75,46.84,3.9805,26.11,25.1,4.1508
379,21.79,46.89,3.9996,25.95,25.1,4.1429
380,21.83,46.91,4.0028,26.19,25.1,4.1476
381,21.87,46.89,3.998,26.27,25.1,4.1445
382,21.91,46.89,4.0043,26.27,25.1,4.1445
383,21.96,46.91,3.9996,26.27,25.1,4.1429
384,22.0,46.86,4.0059,26.19,25.1,4.1476
385,22.04,46.84,4.0059,26.27,25.1,4.1476
386,22.08,46.91,4.0043,26.03,25.1,4.1461
387,22.13,46.91,3.9805,25.71,25.1,4.1476
388,22.17,46.84,4.0043,26.03,25.1,4.1445
389,22.21,46.91,4.0107,26.35,25.1,4.1476
390,22.26,46.89,4.0043,26.35,25.1,4.1461
391,22.3,46.81,4.0012,26.11,25.2,4.1492
392,22.34,46.91,4.0075,26.19,25.1,4.1445
393,22.38,46.94,4.0107,26.27,25.1,4.1445
394,22.42,46.94,4.0059,26.19,25.2,4.1461
395,22.47,46.91,3.998,26.27,25.2,4.1476
396,22.51,46.91,3.9996,26.03,25.2,4.1476
397,22.56,46.89,3.9789,26.03,25.2,4.1524
398,22.6,46.86,3.9996,26.19,25.2,4.1476
399,22.64,46.96,3.9996,25.95,25.2,4.1476
400,22.68,46.94,3.998,26.35,25.2,4.1476
401,22.72,46.91,4.0028,26.11,25.2,4.1508
402,22.77,46.84,4.0043,26.19,25.2,4.1476
403,22.81,46.94,3.9996,26.11,25.2,4.1445
404,22.85,46.91,4.0012,26.27,25.2,4.1476
405,22.9,46.98,3.9964,26.35,25.2,4.1476
406,22.94,46.94,3.9805,26.11,25.2,4.1476
407,22.98,46.96,3.998,26.03,25.2,4.1492
408,23.02,46.96,3.9996,26.5,25.2,4.1476
409,23.07,46.96,3.998,26.35,25.2,4.1476
410,23.11,46.98,4.0075,26.27,25.2,4.1445
411,23.15,46.89,4.0075,26.35,25.2,4.1429
412,23.19,46.86,4.0043,26.27,25.2,4.1492
413,23.23,46.91,4.0043,26.11,25.2,4.1429
414,23.28,46.91,4.0043,26.27,25.3,4.1429
415,23.32,46.91,3.9805,26.42,25.3,4.1476
416,23.37,46.94,4.0043,26.11,25.3,4.1429
417,23.41,46.91,4.0028,26.35,25.3,4.1461
418,23.45,46.91,4.0028,26.27,25.3,4.1508
419,23.49,46.91,4.0043,26.42,25.3,4.1508
420,23.53,46.89,3.9964,26.42,25.3,4.1492
421,23.58,46.91,4.0043,26.27,25.3,4.1492
422,23.62,46.94,3.998,26.35,25.3,4.1508
423,23.66,46.94,4.0059,26.35,25.3,4.1492
424,23.71,46.86,3.9757,26.35,25.3,4.1476
425,23.75,46.94,3.998,26.11,25.3,4.1476
426,23.79,46.91,3.9996,26.35,25.3,4.1476
427,23.83,46.84,3.998,26.58,25.3,4.1492
428,23.88,46.86,4.0059,26.19,25.3,4.1461
429,23.92,46.84,3.9996,26.42,25.3,4.1476
430,23.96,46.86,4.0012,26.42,25.3,4.1461
431,24.0,46.81,3.998,26.35,25.3,4.1476
432,24.04,46.84,4.0028,26.11,25.4,4.1492
433,24.09,46.84,3.9805,26.35,25.4,4.1508
434,24.13,46.81,3.998,26.35,25.4,4.1445
435,24.18,46.89,4.0059,26.5,25.4,4.1492
436,24.22,46.86,4.0043,26.5,25.4,4.1461
437,24.26,46.81,4.0043,26.66,25.4,4.1476
438,24.3,46.89,4.0028,26.35,25.4,4.1492
439,24.34,46.86,4.0075,26.58,25.4,4.1492
440,24.39,46.89,4.0059,26.27,25.4,4.1508
441,24.43,46.89,4.0075,26.58,25.4,4.1397
442,24.48,46.89,3.9852,26.42,25.4,4.1476
443,24.52,46.76,4.0043,26.27,25.4,4.1492
444,24.56,46.84,4.0075,26.42,25.4,4.1461
445,24.6,46.89,4.0028,26.35,25.4,4.1508
446,24.64,46.81,3.9996,26.5,25.4,4.1461
447,24.69,46.81,4.0059,26.42,25.4,4.1461
448,24.73,46.89,4.0012,26.42,25.4,4.1445
449,24.77,46.89,3.9996,26.58,25.4,4.1476
450,24.81,46.84,3.9996,26.42,25.4,4.1445
451,24.86,46.84,3.9805,26.27,25.4,4.1461
452,24.9,46.89,3.9948,26.5,25.4,4.1461
453,24.94,46.86,4.0043,26.27,25.4,4.1492
454,24.98,46.79,3.9996,26.35,25.4,4.1461
455,25.03,46.84,4.0028,26.58,25.4,4.1445
456,25.07,46.79,3.998,26.5,25.4,4.1461
457,25.13,46.79,3.9805,26.03,25.4,4.1476
458,25.17,46.81,3.9773,26.5,25.4,4.1476
459,25.22,46.79,3.9789,26.58,25.4,4.1429
460,25.26,46.79,3.9821,26.42,25.4,4.1476
461,25.31,46.89,3.9773,26.42,25.4,4.1508
462,25.35,46.84,4.0043,26.5,25.4,4.1461
463,25.39,46.81,4.0075,26.66,25.4,4.1476
464,25.43,46.84,4.0075,26.42,25.4,4.1476
465,25.47,46.79,4.0043,26.19,25.4,4.1508
466,25.52,46.86,4.0012,26.35,25.4,4.1476
467,25.56,46.79,4.0028,26.35,25.4,4.1476
468,25.6,46.91,4.0028,26.35,25.4,4.1476
469,25.65,46.84,3.998,26.35,25.4,4.1445
470,25.69,46.79,3.9757,26.35,25.4,4.1524
471,25.73,46.72,4.0028,26.42,25.4,4.1508
472,25.78,46.67,3.998,26.74,25.4,4.1492
473,25.82,46.59,4.0012,26.5,25.4,4.1508
474,25.86,46.62,3.9996,26.5,25.4,4.1461
475,25.9,46.57,4.0075,26.58,25.4,4.1461
476,25.94,46.4,4.0043,26.58,25.4,4.1476
477,25.99,46.25,3.998,26.42,25.4,4.1476
478,26.03,46.15,4.0012,26.42,25.4,4.1445
479,26.08,46.3,3.9836,26.35,25.4,4.1492
480,26.12,46.47,4.0059,26.66,25.4,4.1492
481,26.16,46.86,4.0075,26.66,25.4,4.1476
482,26.2,47.08,4.0091,26.58,25.4,4.1476
483,26.24,47.2,4.0028,26.5,25.4,4.1524
484,26.29,47.47,4.0043,26.66,25.4,4.1461
485,26.33,47.64,4.0075,26.5,25.4,4.1524
486,26.37,47.96,3.998,26.5,25.4,4.1461
487,26.41,48.38,4.0043,26.42,25.4,4.1461
488,26.46,48.6,3.9821,26.58,25.4,4.1492
489,26.5,48.77,4.0091,26.58,25.4,4.1445
490,26.54,48.79,4.0012,26.66,25.4,4.1429
491,26.59,48.89,4.0012,26.82,25.4,4.1492
492,26.63,48.86,4.0012,26.58,25.4,4.1429
493,26.67,48.82,4.0012,26.66,25.4,4.1429
494,26.71,48.84,4.0091,26.66,25.4,4.1492
